DB(|S(1,1)|) (GHz) Rancangan Frequency	DB(|S(1,1)|) Rancangan
1	-0.125322
1.01	-0.128085
1.02	-0.130931
1.03	-0.133863
1.04	-0.136883
1.05	-0.139994
1.06	-0.143201
1.07	-0.146506
1.08	-0.149913
1.09	-0.153426
1.1	-0.15705
1.11	-0.160789
1.12	-0.164648
1.13	-0.168633
1.14	-0.172749
1.15	-0.177003
1.16	-0.1814
1.17	-0.185949
1.18	-0.190657
1.19	-0.195533
1.2	-0.200586
1.21	-0.205826
1.22	-0.211264
1.23	-0.216913
1.24	-0.222786
1.25	-0.228898
1.26	-0.235266
1.27	-0.24191
1.28	-0.248851
1.29	-0.256116
1.3	-0.263735
1.31	-0.271744
1.32	-0.280192
1.33	-0.289137
1.34	-0.298664
1.35	-0.308888
1.36	-0.31998
1.37	-0.332199
1.38	-0.345914
1.39	-0.361538
1.4	-0.379012
1.41	-0.396464
1.42	-0.410413
1.43	-0.420687
1.44	-0.430809
1.45	-0.442998
1.46	-0.457596
1.47	-0.474398
1.48	-0.493221
1.49	-0.513999
1.5	-0.536773
1.51	-0.561661
1.52	-0.588843
1.53	-0.618559
1.54	-0.651105
1.55	-0.686839
1.56	-0.726189
1.57	-0.769666
1.58	-0.817879
1.59	-0.871557
1.6	-0.931578
1.61	-0.998999
1.62	-1.07511
1.63	-1.16147
1.64	-1.26002
1.65	-1.37314
1.66	-1.50382
1.67	-1.65579
1.68	-1.8338
1.69	-2.04388
1.7	-2.29376
1.71	-2.59348
1.72	-2.95606
1.73	-3.39854
1.74	-3.94321
1.75	-4.61918
1.76	-5.46384
1.77	-6.52304
1.78	-7.84496
1.79	-9.44937
1.8	-11.2109
1.81	-12.565
1.82	-12.5426
1.83	-11.1448
1.84	-9.34382
1.85	-7.70694
1.86	-6.36085
1.87	-5.28572
1.88	-4.43247
1.89	-3.75403
1.9	-3.2117
1.91	-2.77522
1.92	-2.42128
1.93	-2.13207
1.94	-1.89394
1.95	-1.69644
1.96	-1.53148
1.97	-1.39279
1.98	-1.27547
1.99	-1.17566
2	-1.09031
2.01	-1.01697
2.02	-0.953688
2.03	-0.89887
2.04	-0.851225
2.05	-0.809694
2.06	-0.773403
2.07	-0.741627
2.08	-0.713762
2.09	-0.689303
2.1	-0.667824
2.11	-0.648966
2.12	-0.632422
2.13	-0.617933
2.14	-0.605278
2.15	-0.594267
2.16	-0.584738
2.17	-0.576552
2.18	-0.56959
2.19	-0.563754
2.2	-0.558958
2.21	-0.555135
2.22	-0.552231
2.23	-0.550208
2.24	-0.549043
2.25	-0.548737
2.26	-0.549314
2.27	-0.550834
2.28	-0.553408
2.29	-0.557219
2.3	-0.562549
2.31	-0.56978
2.32	-0.579277
2.33	-0.590881
2.34	-0.602748
2.35	-0.610896
2.36	-0.612723
2.37	-0.610632
2.38	-0.608665
2.39	-0.6088
2.4	-0.611276
2.41	-0.615765
2.42	-0.621907
2.43	-0.629444
2.44	-0.638216
2.45	-0.648142
2.46	-0.659196
2.47	-0.67139
2.48	-0.684771
2.49	-0.699411
2.5	-0.71541
2.51	-0.732891
2.52	-0.752007
2.53	-0.772937
2.54	-0.7959
2.55	-0.821151
2.56	-0.848996
2.57	-0.879798
2.58	-0.913989
2.59	-0.952089
2.6	-0.994721
2.61	-1.04264
2.62	-1.09677
2.63	-1.15823
2.64	-1.22841
2.65	-1.30904
2.66	-1.40227
2.67	-1.51081
2.68	-1.63812
2.69	-1.78861
2.7	-1.96798
2.71	-2.18363
2.72	-2.44527
2.73	-2.76567
2.74	-3.16169
2.75	-3.65559
2.76	-4.27652
2.77	-5.06167
2.78	-6.05567
2.79	-7.30242
2.8	-8.8114
2.81	-10.4457
2.82	-11.6825
2.83	-11.7074
2.84	-10.5206
2.85	-8.93391
2.86	-7.46701
2.87	-6.25565
2.88	-5.2906
2.89	-4.52889
2.9	-3.92711
2.91	-3.44919
2.92	-3.06696
2.93	-2.75895
2.94	-2.50889
2.95	-2.30445
2.96	-2.13625
2.97	-1.99714
2.98	-1.88158
2.99	-1.78531
3	-1.70497
3.01	-1.63794
3.02	-1.58214
3.03	-1.53591
3.04	-1.49792
3.05	-1.46713
3.06	-1.44268
3.07	-1.42389
3.08	-1.41023
3.09	-1.40127
3.1	-1.39668
3.11	-1.39622
3.12	-1.39973
3.13	-1.40709
3.14	-1.41826
3.15	-1.43326
3.16	-1.45216
3.17	-1.47508
3.18	-1.50222
3.19	-1.53382
3.2	-1.57021
3.21	-1.61178
3.22	-1.65902
3.23	-1.71253
3.24	-1.77303
3.25	-1.84136
3.26	-1.91857
3.27	-2.00591
3.28	-2.10489
3.29	-2.21734
3.3	-2.34549
3.31	-2.49208
3.32	-2.66048
3.33	-2.85488
3.34	-3.08047
3.35	-3.34379
3.36	-3.65305
3.37	-4.01866
3.38	-4.45384
3.39	-4.97541
3.4	-5.60479
3.41	-6.36926
3.42	-7.30355
3.43	-8.45198
3.44	-9.87157
3.45	-11.6374
3.46	-13.8527
3.47	-16.6646
3.48	-20.2637
3.49	-24.5368
3.5	-26.7395
3.51	-24.5889
3.52	-21.9928
3.53	-19.9762
3.54	-18.3149
3.55	-16.7961
3.56	-15.3261
3.57	-13.8966
3.58	-12.5346
3.59	-11.2693
3.6	-10.1182
3.61	-9.0867
3.62	-8.17197
3.63	-7.36614
3.64	-6.65905
3.65	-6.03989
3.66	-5.49809
3.67	-5.02384
3.68	-4.60826
3.69	-4.2435
3.7	-3.92268
3.71	-3.63985
3.72	-3.38988
3.73	-3.16837
3.74	-2.97153
3.75	-2.79614
3.76	-2.63945
3.77	-2.49909
3.78	-2.37304
3.79	-2.25959
3.8	-2.15724
3.81	-2.06474
3.82	-1.981
3.83	-1.90511
3.84	-1.83629
3.85	-1.77391
3.86	-1.71742
3.87	-1.66639
3.88	-1.62043
3.89	-1.57911
3.9	-1.54179
3.91	-1.50738
3.92	-1.47439
3.93	-1.44151
3.94	-1.40848
3.95	-1.37616
3.96	-1.34561
3.97	-1.31746
3.98	-1.29185
3.99	-1.26866
4	-1.24768
